DATE,OPEN,HIGH,LOW,CLOSE,52W H,52W L,SYMBOL
2021-11-12,18.75,22.35,18.75,21.95,27.7,12.15,RAMANEWS
2021-11-11,18.6,19.2,18.6,18.8,27.7,12.15,RAMANEWS
2021-11-10,19.05,19.25,18.85,18.95,27.7,12.15,RAMANEWS
2021-11-09,19.05,19.25,19.05,19.05,27.7,12.15,RAMANEWS
2021-11-08,19.0,19.25,19.0,19.05,27.7,12.15,RAMANEWS
2021-11-04,19.25,19.3,19.0,19.05,27.7,12.15,RAMANEWS
2021-11-03,19.0,19.25,18.65,18.9,27.7,12.15,RAMANEWS
2021-11-02,19.4,19.4,18.75,18.95,27.7,12.15,RAMANEWS
2021-11-01,19.5,19.5,18.9,19.0,27.7,12.15,RAMANEWS
2021-10-29,18.9,19.35,18.6,18.8,27.7,12.15,RAMANEWS
2021-10-28,19.65,19.95,18.75,18.85,27.7,12.15,RAMANEWS
2021-10-27,19.25,20.2,19.2,19.6,27.7,12.15,RAMANEWS
2021-10-26,19.0,19.95,18.35,19.15,27.7,12.15,RAMANEWS
2021-10-25,19.2,19.3,18.55,18.95,27.7,12.15,RAMANEWS
2021-10-22,19.75,20.15,19.05,19.25,27.7,12.15,RAMANEWS
2021-10-21,19.2,19.9,19.2,19.6,27.7,12.15,RAMANEWS
2021-10-20,19.6,19.75,19.1,19.15,27.7,12.15,RAMANEWS
2021-10-19,20.4,20.4,19.2,19.55,27.7,12.15,RAMANEWS
2021-10-18,20.95,20.95,20.05,20.15,27.7,12.15,RAMANEWS
2021-10-14,21.5,21.5,20.6,20.9,27.7,12.15,RAMANEWS
2021-10-13,22.0,22.0,21.05,21.25,27.7,12.15,RAMANEWS
2021-10-12,21.4,22.1,21.05,21.8,27.7,12.15,RAMANEWS
2021-10-11,20.45,22.15,20.05,21.25,27.7,12.15,RAMANEWS
2021-10-08,20.05,20.9,20.05,20.25,27.7,12.15,RAMANEWS
2021-10-07,20.0,20.8,19.75,19.95,27.7,12.15,RAMANEWS
2021-10-06,20.9,21.1,19.5,19.7,27.7,12.15,RAMANEWS
2021-10-05,19.55,21.0,19.35,20.5,27.7,12.15,RAMANEWS
2021-10-04,19.95,20.0,19.5,19.55,27.7,12.15,RAMANEWS
2021-10-01,19.5,20.0,19.1,19.6,27.7,12.15,RAMANEWS
2021-09-30,19.9,20.75,19.35,19.5,27.7,12.15,RAMANEWS
2021-09-29,19.7,19.95,19.35,19.65,27.7,12.15,RAMANEWS
2021-09-28,18.25,20.25,18.25,19.5,27.7,12.15,RAMANEWS
2021-09-27,18.2,18.95,17.7,18.6,27.7,12.15,RAMANEWS
2021-09-24,18.45,18.7,17.9,18.1,27.7,12.15,RAMANEWS
2021-09-23,18.95,19.1,18.4,18.45,27.7,12.15,RAMANEWS
2021-09-22,18.7,19.0,18.5,18.6,27.7,12.15,RAMANEWS
2021-09-21,18.35,18.65,18.35,18.45,27.7,12.15,RAMANEWS
2021-09-20,18.75,18.75,18.05,18.35,27.7,12.15,RAMANEWS
2021-09-17,19.05,19.2,18.2,18.7,27.7,12.15,RAMANEWS
2021-09-16,19.0,19.3,19.0,19.05,27.7,12.15,RAMANEWS
2021-09-15,18.7,19.35,18.7,19.05,27.7,12.15,RAMANEWS
2021-09-14,19.25,19.5,18.0,18.95,27.7,12.15,RAMANEWS
2021-09-13,19.15,19.5,18.95,19.2,27.7,12.15,RAMANEWS
2021-09-09,19.1,19.4,19.0,19.15,27.7,12.15,RAMANEWS
2021-09-08,19.75,19.75,18.9,19.05,27.7,12.15,RAMANEWS
2021-09-07,19.5,19.75,19.15,19.45,27.7,12.15,RAMANEWS
2021-09-06,19.7,19.95,19.15,19.55,27.7,12.15,RAMANEWS
2021-09-03,20.25,20.25,19.55,19.6,27.7,12.15,RAMANEWS
2021-09-02,20.1,20.4,19.7,19.8,27.7,12.15,RAMANEWS
2021-09-01,20.0,20.7,19.65,20.05,27.7,12.15,RAMANEWS
2021-08-31,20.9,20.9,19.6,19.8,27.7,12.15,RAMANEWS
2021-08-30,18.95,20.45,18.95,19.85,27.7,12.15,RAMANEWS
2021-08-27,19.55,19.75,18.5,18.9,27.7,12.15,RAMANEWS
2021-08-26,19.75,20.3,19.5,19.55,27.7,12.15,RAMANEWS
2021-08-25,20.0,20.45,19.55,19.75,27.7,12.15,RAMANEWS
2021-08-24,18.45,20.6,18.2,19.95,27.7,12.15,RAMANEWS
2021-08-23,19.2,19.5,18.2,18.4,27.7,12.15,RAMANEWS
2021-08-20,19.0,19.65,17.0,18.7,27.7,12.15,RAMANEWS
2021-08-18,19.85,20.5,19.5,19.65,27.7,12.15,RAMANEWS
2021-08-17,20.5,20.75,19.65,19.75,27.7,12.15,RAMANEWS
2021-08-16,21.15,21.5,20.0,20.3,27.7,12.15,RAMANEWS
2021-08-13,20.85,22.4,20.6,21.35,27.7,12.15,RAMANEWS
2021-08-12,20.5,21.6,20.5,20.85,27.7,12.15,RAMANEWS
2021-08-11,20.85,20.95,18.9,20.4,27.7,12.15,RAMANEWS
2021-08-10,22.85,22.85,20.55,20.85,27.7,12.15,RAMANEWS
2021-08-09,22.75,23.3,22.25,22.75,27.7,12.15,RAMANEWS
2021-08-06,22.75,23.7,22.25,22.7,27.7,12.15,RAMANEWS
2021-08-05,23.0,24.15,21.5,22.7,27.7,12.15,RAMANEWS
2021-08-04,25.2,25.2,22.85,23.1,27.7,12.15,RAMANEWS
2021-08-03,26.3,26.3,24.25,24.4,27.7,12.15,RAMANEWS
2021-08-02,27.7,27.7,25.15,25.5,27.7,12.15,RAMANEWS
2021-07-30,22.8,25.7,22.45,24.7,25.7,12.15,RAMANEWS
2021-07-29,23.25,24.1,22.6,22.75,24.95,12.15,RAMANEWS
2021-07-28,22.6,23.5,21.95,23.0,24.95,12.15,RAMANEWS
2021-07-27,19.95,23.75,19.95,22.15,24.95,12.15,RAMANEWS
2021-07-26,20.85,20.85,19.9,20.1,24.95,12.15,RAMANEWS
2021-07-23,21.25,21.85,20.5,20.65,24.95,12.15,RAMANEWS
2021-07-22,21.5,21.5,20.5,21.05,24.95,12.15,RAMANEWS
2021-07-20,20.05,20.95,18.7,20.65,24.95,12.15,RAMANEWS
2021-07-19,20.5,21.2,19.65,20.25,24.95,12.15,RAMANEWS
2021-07-16,21.0,21.7,20.4,20.65,24.95,12.15,RAMANEWS
2021-07-15,21.85,22.65,20.5,20.7,24.95,12.15,RAMANEWS
2021-07-14,21.4,22.35,21.4,21.85,24.95,12.15,RAMANEWS
2021-07-13,22.95,23.1,21.6,21.75,24.95,12.15,RAMANEWS
2021-07-12,23.0,23.4,22.3,22.6,24.95,12.15,RAMANEWS
2021-07-09,22.95,23.85,22.5,23.05,24.95,12.15,RAMANEWS
2021-07-08,24.95,24.95,22.6,22.85,24.95,12.15,RAMANEWS
2021-07-07,21.1,24.7,21.1,24.7,24.7,12.15,RAMANEWS
2021-07-06,21.15,21.8,20.4,20.6,22.4,12.15,RAMANEWS
2021-07-05,20.1,21.65,19.6,20.75,22.4,12.15,RAMANEWS
2021-07-02,20.45,20.7,19.8,19.9,22.4,12.15,RAMANEWS
2021-07-01,20.75,21.15,20.1,20.2,22.4,12.15,RAMANEWS
2021-06-30,20.15,20.7,19.75,20.55,22.4,12.15,RAMANEWS
2021-06-29,20.05,20.25,19.6,19.7,22.4,12.15,RAMANEWS
2021-06-28,20.7,21.2,19.75,20.0,22.4,12.15,RAMANEWS
2021-06-25,18.95,22.4,18.6,20.5,22.4,12.15,RAMANEWS
2021-06-24,19.25,19.4,18.6,18.7,20.95,12.15,RAMANEWS
2021-06-23,19.1,19.7,18.8,18.9,20.95,12.15,RAMANEWS
2021-06-22,18.85,19.75,18.7,18.95,20.95,12.15,RAMANEWS
2021-06-21,18.9,19.2,17.4,18.85,20.95,12.15,RAMANEWS
2021-06-18,19.15,19.7,18.3,19.0,20.95,11.75,RAMANEWS
2021-06-17,19.25,20.1,19.1,19.3,20.95,11.75,RAMANEWS
2021-06-16,20.0,20.2,19.55,19.65,20.95,11.75,RAMANEWS
2021-06-15,19.1,20.95,19.05,20.2,20.95,11.75,RAMANEWS
2021-06-14,20.25,20.25,19.1,19.25,20.45,11.75,RAMANEWS
2021-06-11,19.0,20.45,18.8,19.95,20.45,11.65,RAMANEWS
2021-06-10,18.5,19.5,18.25,18.8,20.4,11.65,RAMANEWS
2021-06-09,18.35,19.6,18.05,18.3,20.4,11.65,RAMANEWS
2021-06-08,18.3,18.6,18.0,18.3,20.4,11.65,RAMANEWS
2021-06-07,18.35,18.8,18.2,18.25,20.4,11.65,RAMANEWS
2021-06-04,18.5,19.0,18.2,18.35,20.4,11.3,RAMANEWS
2021-06-03,19.0,19.45,18.4,18.75,20.4,11.3,RAMANEWS
2021-06-02,17.6,19.7,17.6,18.85,20.4,11.3,RAMANEWS
2021-06-01,18.5,18.7,17.55,17.85,20.4,11.3,RAMANEWS
2021-05-31,18.5,19.5,18.25,18.45,20.4,11.3,RAMANEWS
2021-05-28,17.5,17.75,16.9,17.1,20.4,10.35,RAMANEWS
2021-05-27,17.65,18.25,17.2,17.5,20.4,10.35,RAMANEWS
2021-05-26,16.95,18.45,16.65,17.65,20.4,10.35,RAMANEWS
2021-05-25,16.75,16.9,16.6,16.8,20.4,10.35,RAMANEWS
2021-05-24,16.55,17.25,16.3,16.55,20.4,10.35,RAMANEWS
2021-05-21,16.5,16.8,16.25,16.55,20.4,10.35,RAMANEWS
2021-05-20,16.0,17.3,15.95,16.25,20.4,10.35,RAMANEWS
2021-05-19,16.2,16.45,15.75,16.0,20.4,10.35,RAMANEWS
2021-05-18,16.9,16.9,16.1,16.4,20.4,10.35,RAMANEWS
2021-05-17,16.55,16.55,16.05,16.2,20.4,10.35,RAMANEWS
2021-05-14,16.65,16.65,15.9,16.15,20.4,10.35,RAMANEWS
2021-05-12,16.5,17.7,15.75,15.95,20.4,10.35,RAMANEWS
2021-05-11,15.7,17.2,15.7,16.55,20.4,10.35,RAMANEWS
2021-05-10,16.65,17.5,16.25,16.55,20.4,10.35,RAMANEWS
2021-05-07,15.5,17.1,15.5,16.65,20.4,10.35,RAMANEWS
2021-05-06,16.1,16.15,15.55,15.65,20.4,10.35,RAMANEWS
2021-05-05,16.2,16.45,15.75,16.05,20.4,10.35,RAMANEWS
2021-05-04,14.95,16.9,14.75,15.85,20.4,10.35,RAMANEWS
2021-05-03,14.6,14.9,14.05,14.75,20.4,10.35,RAMANEWS
2021-04-30,14.95,15.0,14.5,14.6,20.4,10.35,RAMANEWS
2021-04-29,15.25,15.25,14.6,14.8,20.4,10.35,RAMANEWS
2021-04-28,15.15,15.7,14.85,15.3,20.4,10.35,RAMANEWS
2021-04-27,14.45,15.15,14.45,15.0,20.4,10.35,RAMANEWS
2021-04-26,15.0,15.0,14.2,14.45,20.4,10.35,RAMANEWS
2021-04-23,14.4,15.0,14.35,14.8,20.4,10.35,RAMANEWS
2021-04-22,14.05,14.7,13.9,14.65,20.4,10.35,RAMANEWS
2021-04-20,14.75,14.8,14.2,14.3,20.4,10.35,RAMANEWS
2021-04-19,15.0,15.0,13.4,14.15,20.4,10.35,RAMANEWS
2021-04-16,14.5,15.2,14.5,14.8,20.4,10.35,RAMANEWS
2021-04-15,15.05,15.25,14.7,15.1,20.4,10.35,RAMANEWS
2021-04-13,14.7,15.3,14.7,15.05,20.4,10.35,RAMANEWS
2021-04-12,15.4,15.5,14.95,15.05,20.4,10.35,RAMANEWS
2021-04-09,15.8,16.0,15.3,15.55,20.4,10.35,RAMANEWS
2021-04-08,15.95,16.4,15.8,15.9,20.4,10.35,RAMANEWS
2021-04-07,16.05,16.5,15.85,15.9,20.4,10.35,RAMANEWS
2021-04-06,16.05,16.5,15.95,16.0,20.4,10.35,RAMANEWS
2021-04-05,16.95,16.95,15.65,16.2,20.4,10.35,RAMANEWS
2021-04-01,16.65,17.3,16.55,16.8,20.4,10.25,RAMANEWS
2021-03-31,16.9,17.35,16.45,16.65,20.4,10.25,RAMANEWS
2021-03-30,15.95,17.15,15.95,16.9,20.4,10.25,RAMANEWS
2021-03-26,16.2,16.75,15.45,15.95,20.4,9.8,RAMANEWS
2021-03-25,15.3,18.0,15.05,16.05,20.4,9.8,RAMANEWS
2021-03-24,15.95,16.2,15.1,15.3,20.4,9.8,RAMANEWS
2021-03-23,16.3,16.9,15.75,15.95,20.4,9.8,RAMANEWS
2021-03-22,16.05,16.05,15.55,15.8,20.4,9.8,RAMANEWS
2021-03-19,15.25,16.5,15.1,16.05,20.4,9.8,RAMANEWS
2021-03-18,16.45,16.7,15.55,15.95,20.4,9.8,RAMANEWS
2021-03-17,16.75,17.0,16.3,16.35,20.4,9.8,RAMANEWS
2021-03-16,17.3,17.75,16.5,16.75,20.4,9.8,RAMANEWS
2021-03-15,17.5,17.75,16.45,16.95,20.4,9.8,RAMANEWS
2021-03-12,18.8,19.0,16.85,17.2,20.4,9.8,RAMANEWS
2021-03-10,18.6,19.55,17.65,18.15,20.4,9.8,RAMANEWS
2021-03-09,17.25,20.4,16.9,18.65,20.4,9.8,RAMANEWS
2021-03-08,17.4,17.5,16.85,17.0,18.3,9.8,RAMANEWS
2021-03-05,16.3,17.3,15.8,16.85,18.3,9.8,RAMANEWS
2021-03-04,16.45,16.45,15.8,15.95,18.3,9.8,RAMANEWS
2021-03-03,15.45,18.3,15.3,16.55,18.3,9.8,RAMANEWS
2021-03-02,14.65,15.65,14.2,15.25,17.5,9.8,RAMANEWS
2021-03-01,14.6,14.65,14.3,14.55,17.5,9.8,RAMANEWS
2021-02-26,14.4,14.65,14.2,14.45,17.5,9.8,RAMANEWS
2021-02-25,15.15,15.15,14.35,14.5,17.5,9.8,RAMANEWS
2021-02-24,14.0,15.4,14.0,14.7,17.5,9.8,RAMANEWS
2021-02-23,14.05,14.2,13.9,13.95,17.5,9.8,RAMANEWS
2021-02-22,14.5,14.5,13.95,14.0,17.5,9.8,RAMANEWS
2021-02-19,14.2,14.75,14.1,14.2,17.5,9.8,RAMANEWS
2021-02-18,14.35,14.5,14.1,14.2,17.5,9.8,RAMANEWS
2021-02-17,14.7,14.7,14.25,14.35,17.5,9.8,RAMANEWS
2021-02-16,14.3,14.55,14.15,14.45,17.5,9.8,RAMANEWS
2021-02-15,14.5,14.5,14.3,14.3,17.5,9.8,RAMANEWS
2021-02-12,14.5,14.7,14.3,14.35,17.5,9.8,RAMANEWS
2021-02-11,14.65,14.75,14.45,14.55,17.5,9.8,RAMANEWS
2021-02-10,14.45,14.7,14.3,14.45,17.5,9.8,RAMANEWS
2021-02-09,14.6,14.8,14.5,14.55,17.5,9.8,RAMANEWS
2021-02-08,14.45,15.0,14.45,14.65,17.5,9.8,RAMANEWS
2021-02-05,15.1,15.3,14.65,14.75,17.5,9.8,RAMANEWS
2021-02-04,14.7,15.45,14.5,15.1,17.5,9.8,RAMANEWS
2021-02-03,14.85,14.85,14.5,14.55,17.5,9.8,RAMANEWS
2021-02-02,14.8,14.9,14.5,14.7,17.5,9.8,RAMANEWS
2021-02-01,15.0,15.0,14.5,14.55,17.5,9.8,RAMANEWS
2021-01-29,14.8,15.1,14.65,14.75,17.5,9.8,RAMANEWS
2021-01-28,14.5,14.8,14.4,14.55,17.5,9.8,RAMANEWS
2021-01-27,14.8,14.9,14.65,14.7,17.5,9.8,RAMANEWS
2021-01-25,14.75,14.95,14.5,14.8,17.5,9.8,RAMANEWS
2021-01-22,15.2,15.5,14.5,14.65,17.5,9.8,RAMANEWS
2021-01-21,15.95,16.0,15.2,15.3,17.5,9.8,RAMANEWS
2021-01-20,15.6,16.5,15.6,15.8,17.5,9.8,RAMANEWS
2021-01-19,15.25,15.6,15.15,15.25,17.5,9.8,RAMANEWS
2021-01-18,16.0,16.1,15.1,15.35,17.5,9.8,RAMANEWS
2021-01-15,15.15,16.7,14.8,15.7,17.5,9.8,RAMANEWS
2021-01-14,14.7,15.15,14.7,15.1,17.5,9.8,RAMANEWS
2021-01-13,15.4,15.4,14.2,14.7,17.5,9.8,RAMANEWS
2021-01-12,15.2,15.2,14.8,14.9,17.5,9.8,RAMANEWS
2021-01-11,15.5,15.7,14.8,14.9,17.5,9.8,RAMANEWS
2021-01-08,15.75,16.3,15.5,15.6,17.5,9.8,RAMANEWS
2021-01-07,15.9,16.1,15.5,15.75,17.5,9.8,RAMANEWS
2021-01-06,15.8,16.1,15.4,15.55,17.5,9.8,RAMANEWS
2021-01-05,16.15,16.35,15.65,15.95,17.5,9.8,RAMANEWS
2021-01-04,16.7,16.7,16.05,16.2,17.5,9.8,RAMANEWS
2021-01-01,16.75,16.75,16.1,16.2,17.5,9.8,RAMANEWS
2020-12-31,15.35,17.25,15.35,16.3,17.5,9.8,RAMANEWS
2020-12-30,15.4,15.9,15.2,15.35,17.5,9.8,RAMANEWS
2020-12-29,15.6,15.9,15.0,15.2,17.5,9.8,RAMANEWS
2020-12-28,15.5,16.05,15.25,15.6,17.5,9.8,RAMANEWS
2020-12-24,15.3,16.5,15.05,15.65,17.5,9.8,RAMANEWS
2020-12-23,15.05,15.55,15.0,15.35,17.5,9.8,RAMANEWS
2020-12-22,14.8,15.4,14.1,15.25,17.5,9.8,RAMANEWS
2020-12-21,15.95,16.5,15.05,15.25,17.5,9.8,RAMANEWS
2020-12-18,16.2,16.2,15.0,15.65,17.5,9.8,RAMANEWS
2020-12-17,14.7,16.95,14.35,16.0,17.5,9.8,RAMANEWS
2020-12-16,14.7,14.7,14.35,14.5,17.5,9.8,RAMANEWS
2020-12-15,14.45,14.7,14.3,14.35,17.5,9.8,RAMANEWS
2020-12-14,14.85,14.85,14.2,14.5,17.5,9.8,RAMANEWS
2020-12-11,14.35,14.8,14.25,14.45,17.5,9.8,RAMANEWS
2020-12-10,14.55,14.7,14.0,14.25,17.5,9.8,RAMANEWS
2020-12-09,14.6,15.0,14.6,14.8,17.5,9.8,RAMANEWS
2020-12-08,14.9,15.0,14.2,14.7,17.5,9.8,RAMANEWS
2020-12-07,14.8,15.2,14.15,14.75,17.5,9.8,RAMANEWS
2020-12-04,14.85,14.9,13.95,14.05,17.5,9.8,RAMANEWS
2020-12-03,14.4,15.1,14.4,14.65,17.5,9.8,RAMANEWS
2020-12-02,14.8,15.3,14.15,14.35,17.5,9.8,RAMANEWS
2020-12-01,13.15,15.2,13.15,14.25,17.5,9.8,RAMANEWS
2020-11-27,13.1,13.65,13.05,13.35,17.5,9.8,RAMANEWS
2020-11-26,13.6,13.6,13.05,13.2,17.5,9.8,RAMANEWS
2020-11-25,13.35,13.8,13.15,13.2,17.5,9.8,RAMANEWS
2020-11-24,13.5,13.9,13.1,13.3,17.5,9.8,RAMANEWS
2020-11-23,13.4,14.05,13.1,13.7,17.5,9.8,RAMANEWS
2020-11-20,13.3,13.8,13.05,13.55,17.5,9.8,RAMANEWS
2020-11-19,12.65,13.8,12.4,12.8,17.5,9.8,RAMANEWS
2020-11-18,12.55,13.05,12.5,12.65,17.5,9.8,RAMANEWS
2020-11-17,12.55,12.75,12.4,12.55,17.5,9.8,RAMANEWS
2020-11-14,13.0,13.0,12.35,12.6,17.5,9.8,RAMANEWS
2020-11-13,12.65,12.8,12.5,12.6,17.5,9.8,RAMANEWS
2020-11-12,12.4,12.75,12.4,12.5,17.5,9.8,RAMANEWS
2020-11-11,12.85,12.85,12.3,12.5,17.5,9.8,RAMANEWS
2020-11-10,12.25,12.6,12.15,12.5,17.5,9.8,RAMANEWS
2020-11-09,12.8,12.8,12.2,12.3,17.5,9.8,RAMANEWS
2020-11-06,12.95,13.1,12.5,12.7,17.5,9.8,RAMANEWS
2020-11-05,12.4,12.7,12.4,12.65,17.5,9.8,RAMANEWS
2020-11-04,12.45,12.8,12.25,12.4,17.5,9.8,RAMANEWS
2020-11-03,12.55,12.8,12.4,12.4,17.5,9.8,RAMANEWS
2020-11-02,12.75,12.8,12.4,12.6,17.5,9.8,RAMANEWS
2020-10-30,12.6,12.95,12.4,12.65,17.95,9.8,RAMANEWS
2020-10-29,12.6,12.85,12.5,12.6,17.95,9.8,RAMANEWS
2020-10-28,12.7,12.9,12.5,12.7,17.95,9.8,RAMANEWS
2020-10-27,12.9,13.2,12.6,12.7,17.95,9.8,RAMANEWS
2020-10-26,13.1,13.3,12.85,13.0,17.95,9.8,RAMANEWS
2020-10-23,13.0,13.15,12.9,12.9,17.95,9.8,RAMANEWS
2020-10-22,13.05,13.25,12.7,12.8,17.95,9.8,RAMANEWS
2020-10-21,12.95,13.3,12.65,12.95,17.95,9.8,RAMANEWS
2020-10-20,13.45,13.5,12.9,13.0,17.95,9.8,RAMANEWS
2020-10-19,12.85,13.45,12.7,12.85,17.95,9.8,RAMANEWS
2020-10-16,13.25,13.25,12.55,12.9,17.95,9.8,RAMANEWS
2020-10-15,13.45,13.45,12.75,12.85,17.95,9.8,RAMANEWS
2020-10-14,13.05,13.05,12.35,12.75,17.95,9.8,RAMANEWS
2020-10-13,13.25,13.45,13.1,13.2,17.95,9.8,RAMANEWS
2020-10-12,13.3,13.35,13.2,13.25,17.95,9.8,RAMANEWS
2020-10-09,13.35,13.6,13.25,13.4,17.95,9.8,RAMANEWS
2020-10-08,13.45,14.0,13.1,13.3,17.95,9.8,RAMANEWS
2020-10-07,13.5,13.75,13.2,13.3,17.95,9.8,RAMANEWS
2020-10-06,13.5,13.7,13.2,13.5,17.95,9.8,RAMANEWS
2020-10-05,13.7,13.7,13.2,13.25,17.95,9.8,RAMANEWS
2020-10-01,13.85,14.0,13.0,13.2,18.75,9.8,RAMANEWS
2020-09-30,13.75,13.85,13.55,13.6,18.75,9.8,RAMANEWS
2020-09-29,14.3,14.35,13.55,13.7,18.75,9.8,RAMANEWS
2020-09-28,14.7,14.7,13.75,13.8,18.75,9.8,RAMANEWS
2020-09-25,13.75,14.4,13.55,13.95,20.25,9.8,RAMANEWS
2020-09-24,14.65,14.65,13.0,13.55,20.25,9.8,RAMANEWS
2020-09-23,13.65,14.45,13.65,13.85,20.25,9.8,RAMANEWS
2020-09-22,13.95,14.15,13.6,13.95,20.25,9.8,RAMANEWS
2020-09-21,14.15,15.2,13.8,14.1,20.25,9.8,RAMANEWS
2020-09-18,14.25,15.15,14.1,14.3,20.25,9.8,RAMANEWS
2020-09-17,15.2,15.2,14.0,14.3,20.25,9.8,RAMANEWS
2020-09-16,13.75,15.95,13.55,14.75,20.25,9.8,RAMANEWS
2020-09-15,13.85,13.95,13.2,13.45,20.25,9.8,RAMANEWS
2020-09-14,13.95,14.25,13.8,13.85,20.25,9.8,RAMANEWS
2020-09-11,14.3,14.3,13.85,13.95,21.45,9.8,RAMANEWS
2020-09-10,13.85,14.35,13.7,14.1,21.45,9.8,RAMANEWS
2020-09-09,13.85,14.05,13.3,13.95,21.45,9.8,RAMANEWS
2020-09-08,14.0,14.5,13.7,14.0,21.45,9.8,RAMANEWS
2020-09-07,13.85,14.15,13.75,13.9,21.45,9.8,RAMANEWS
2020-09-04,14.0,14.9,13.75,13.9,21.45,9.8,RAMANEWS
2020-09-03,14.75,14.75,14.1,14.25,21.45,9.8,RAMANEWS
2020-09-02,15.4,15.4,14.1,14.45,21.45,9.8,RAMANEWS
2020-09-01,14.0,15.4,13.75,14.65,21.45,9.8,RAMANEWS
2020-08-31,15.45,15.45,14.2,14.45,21.45,9.8,RAMANEWS
2020-08-28,15.65,15.65,15.15,15.2,21.45,9.8,RAMANEWS
2020-08-27,15.5,15.5,15.1,15.2,21.45,9.8,RAMANEWS
2020-08-26,15.45,15.5,14.8,15.25,21.45,9.8,RAMANEWS
2020-08-25,15.7,15.7,15.15,15.2,21.45,9.8,RAMANEWS
2020-08-24,15.5,15.9,15.05,15.4,21.45,9.8,RAMANEWS
2020-08-21,15.8,16.2,15.55,15.6,21.45,9.8,RAMANEWS
2020-08-20,15.9,15.9,15.5,15.55,21.45,9.8,RAMANEWS
2020-08-19,15.9,16.3,15.75,15.85,21.45,9.8,RAMANEWS
2020-08-18,15.9,16.3,15.6,15.9,21.45,9.8,RAMANEWS
2020-08-17,15.9,16.25,15.5,15.85,21.45,9.8,RAMANEWS
2020-08-14,15.95,16.95,15.75,15.9,21.45,9.8,RAMANEWS
2020-08-13,16.0,16.1,15.65,15.75,21.45,9.8,RAMANEWS
2020-08-12,15.75,16.0,15.65,15.9,21.45,9.8,RAMANEWS
2020-08-11,16.1,16.1,15.6,15.75,21.45,9.8,RAMANEWS
2020-08-10,16.5,16.5,15.75,15.9,21.45,9.8,RAMANEWS
2020-08-07,16.15,16.25,15.85,16.1,21.45,9.8,RAMANEWS
2020-08-06,16.0,16.55,16.0,16.15,21.45,9.8,RAMANEWS
2020-08-05,16.25,16.55,16.05,16.15,21.45,9.8,RAMANEWS
2020-08-04,15.95,16.7,15.85,16.15,21.45,9.8,RAMANEWS
2020-08-03,16.6,16.6,15.6,16.0,21.45,9.8,RAMANEWS
2020-07-31,16.25,16.95,16.0,16.6,21.45,9.8,RAMANEWS
2020-07-30,16.95,17.0,15.7,16.0,21.45,9.8,RAMANEWS
2020-07-29,15.8,17.3,15.5,16.45,21.45,9.8,RAMANEWS
2020-07-28,16.65,16.65,15.8,15.9,21.45,9.8,RAMANEWS
2020-07-27,16.4,16.9,15.85,16.1,21.45,9.8,RAMANEWS
2020-07-24,16.75,16.85,15.65,16.1,21.45,9.8,RAMANEWS
2020-07-23,14.45,17.3,14.35,17.25,21.45,9.8,RAMANEWS
2020-07-22,14.85,14.85,14.15,14.45,21.45,9.8,RAMANEWS
2020-07-21,14.35,15.1,14.2,14.25,21.45,9.8,RAMANEWS
2020-07-20,14.6,14.9,14.5,14.55,21.45,9.8,RAMANEWS
2020-07-17,14.45,14.7,14.2,14.35,21.45,9.8,RAMANEWS
2020-07-16,14.85,15.1,13.8,14.2,21.45,9.8,RAMANEWS
2020-07-15,15.25,15.4,14.6,14.85,21.45,9.8,RAMANEWS
2020-07-14,15.3,15.3,14.65,14.8,21.45,9.8,RAMANEWS
2020-07-13,15.45,15.45,15.0,15.05,21.45,9.8,RAMANEWS
2020-07-10,15.25,15.6,14.55,14.95,21.45,9.8,RAMANEWS
2020-07-09,15.75,16.2,15.05,15.2,21.45,9.8,RAMANEWS
2020-07-08,15.4,15.85,14.9,15.1,21.45,9.8,RAMANEWS
2020-07-07,15.95,15.95,14.85,15.4,21.45,9.8,RAMANEWS
2020-07-06,15.5,16.0,15.25,15.6,21.45,9.8,RAMANEWS
2020-07-03,16.15,16.8,15.4,15.5,21.45,9.8,RAMANEWS
2020-07-02,16.0,16.8,16.0,16.15,21.45,9.8,RAMANEWS
2020-07-01,16.1,16.75,15.3,16.0,21.45,9.8,RAMANEWS
2020-06-30,16.8,17.5,15.7,16.1,21.45,9.8,RAMANEWS
2020-06-29,15.0,16.4,14.55,16.15,21.45,9.8,RAMANEWS
2020-06-26,15.4,16.35,14.8,14.95,21.45,9.8,RAMANEWS
2020-06-25,15.8,16.7,15.2,15.45,21.45,9.8,RAMANEWS
2020-06-24,14.65,16.45,14.4,15.9,21.45,9.8,RAMANEWS
2020-06-23,14.3,15.2,14.05,14.65,21.45,9.8,RAMANEWS
2020-06-22,14.15,15.25,13.9,14.25,21.45,9.8,RAMANEWS
2020-06-19,12.75,14.85,12.6,14.0,22.0,9.8,RAMANEWS
2020-06-18,12.3,12.75,11.75,12.65,22.0,9.8,RAMANEWS
2020-06-17,12.0,12.25,11.75,12.1,22.0,9.8,RAMANEWS
2020-06-16,12.0,12.35,11.85,12.0,22.0,9.8,RAMANEWS
2020-06-15,12.5,12.5,11.85,12.15,22.0,9.8,RAMANEWS
2020-06-12,11.95,12.2,11.65,12.1,22.0,9.8,RAMANEWS
2020-06-11,12.0,12.3,11.85,12.05,22.0,9.8,RAMANEWS
2020-06-10,11.7,12.6,11.7,11.9,22.0,9.8,RAMANEWS
2020-06-09,12.1,12.5,11.9,12.0,22.0,9.8,RAMANEWS
2020-06-08,12.25,12.8,11.8,12.0,22.0,9.8,RAMANEWS
2020-06-05,11.9,12.3,11.85,12.25,22.0,9.8,RAMANEWS
2020-06-04,11.8,12.0,11.75,11.95,22.0,9.8,RAMANEWS
2020-06-03,12.2,12.5,11.75,11.8,22.0,9.8,RAMANEWS
2020-06-02,12.0,12.5,11.85,12.1,22.0,9.8,RAMANEWS
2020-06-01,11.3,12.25,11.3,12.1,22.0,9.8,RAMANEWS
2020-05-29,12.15,12.65,10.35,11.65,22.25,9.8,RAMANEWS
2020-05-28,12.65,12.65,11.75,11.9,22.25,9.8,RAMANEWS
2020-05-27,12.2,12.35,11.7,12.35,22.25,9.8,RAMANEWS
2020-05-26,12.4,12.4,11.65,12.15,22.25,9.8,RAMANEWS
2020-05-22,11.9,12.4,11.4,11.9,22.25,9.8,RAMANEWS
2020-05-21,11.7,12.0,11.6,11.95,22.25,9.8,RAMANEWS
2020-05-20,11.6,12.1,11.0,11.7,22.25,9.8,RAMANEWS
2020-05-19,12.0,12.2,11.6,11.65,22.25,9.8,RAMANEWS
2020-05-18,11.9,12.25,11.6,12.05,22.25,9.8,RAMANEWS
2020-05-15,12.6,12.6,11.7,12.0,22.25,9.8,RAMANEWS
2020-05-14,12.0,12.4,12.0,12.15,22.25,9.8,RAMANEWS
2020-05-13,12.65,12.65,12.1,12.15,22.25,9.8,RAMANEWS
2020-05-12,12.0,12.4,11.8,12.2,22.25,9.8,RAMANEWS
2020-05-11,12.35,12.8,12.05,12.45,22.25,9.8,RAMANEWS
2020-05-08,12.3,12.9,11.95,12.4,22.25,9.8,RAMANEWS
2020-05-07,12.5,13.4,12.2,12.45,22.25,9.8,RAMANEWS
2020-05-06,12.9,12.9,12.5,12.5,22.25,9.8,RAMANEWS
2020-05-05,12.8,12.85,12.35,12.45,22.25,9.8,RAMANEWS
2020-05-04,12.5,12.95,12.25,12.9,22.25,9.8,RAMANEWS
2020-04-30,12.8,12.8,12.45,12.7,22.7,9.8,RAMANEWS
2020-04-29,12.5,12.85,12.5,12.55,22.7,9.8,RAMANEWS
2020-04-28,12.85,13.0,12.45,12.65,22.7,9.8,RAMANEWS
2020-04-27,12.35,13.2,12.35,12.6,22.7,9.8,RAMANEWS
2020-04-24,12.7,13.7,12.35,12.65,22.7,9.8,RAMANEWS
2020-04-23,12.5,13.35,12.5,13.0,22.7,9.8,RAMANEWS
2020-04-22,12.75,12.75,12.15,12.5,22.7,9.8,RAMANEWS
2020-04-21,13.2,13.6,12.75,12.95,22.7,9.8,RAMANEWS
2020-04-20,13.95,14.05,13.05,13.3,22.7,9.8,RAMANEWS
2020-04-17,13.75,14.0,13.3,13.7,23.0,9.8,RAMANEWS
2020-04-16,13.5,13.75,12.6,13.65,23.0,9.8,RAMANEWS
2020-04-15,13.65,13.75,13.4,13.45,23.0,9.8,RAMANEWS
2020-04-13,15.5,15.5,13.0,13.7,23.0,9.8,RAMANEWS
2020-04-09,16.0,16.45,13.75,14.45,23.5,9.8,RAMANEWS
2020-04-08,12.7,15.15,12.7,14.95,23.5,9.8,RAMANEWS
2020-04-07,11.25,12.8,11.15,12.65,23.5,9.8,RAMANEWS
2020-04-03,11.05,11.9,10.5,10.95,23.5,9.8,RAMANEWS
2020-04-01,11.45,11.6,11.35,11.5,23.5,9.8,RAMANEWS
2020-03-31,10.6,11.9,10.45,11.5,23.5,9.8,RAMANEWS
2020-03-30,10.9,10.95,10.25,10.55,23.5,9.8,RAMANEWS
2020-03-27,11.65,11.9,10.2,11.15,23.5,9.8,RAMANEWS
2020-03-26,10.45,11.7,10.3,11.5,23.5,9.8,RAMANEWS
2020-03-25,10.25,10.9,9.8,10.2,23.5,9.8,RAMANEWS
2020-03-24,10.2,11.35,10.0,10.2,23.5,9.8,RAMANEWS
2020-03-23,11.7,11.7,9.8,10.25,23.5,9.8,RAMANEWS
2020-03-20,12.05,12.8,11.4,12.2,23.6,10.0,RAMANEWS
2020-03-19,10.95,12.0,10.3,11.9,23.6,10.0,RAMANEWS
2020-03-18,11.55,11.65,11.0,11.1,23.6,10.0,RAMANEWS
2020-03-17,10.8,12.45,10.8,11.5,23.6,10.0,RAMANEWS
2020-03-16,12.3,12.85,10.55,12.05,23.6,10.0,RAMANEWS
2020-03-13,10.65,13.9,10.0,11.55,24.0,10.0,RAMANEWS
2020-03-12,12.15,13.5,11.5,12.1,24.0,11.5,RAMANEWS
2020-03-11,12.2,12.95,12.1,12.75,24.0,11.75,RAMANEWS
2020-03-09,13.05,13.05,12.25,12.7,24.0,11.75,RAMANEWS
2020-03-06,12.5,13.2,11.75,13.05,24.55,11.75,RAMANEWS
2020-03-05,12.5,13.0,12.45,12.55,24.55,12.1,RAMANEWS
2020-03-04,12.1,13.25,12.1,12.5,24.55,12.1,RAMANEWS
2020-03-03,12.8,13.25,12.55,12.7,24.55,12.3,RAMANEWS
2020-03-02,13.5,13.7,12.3,12.7,24.55,12.3,RAMANEWS
2020-02-28,14.0,14.05,12.9,13.65,24.55,12.65,RAMANEWS
2020-02-27,13.9,14.8,13.3,14.25,24.55,12.65,RAMANEWS
2020-02-26,13.3,14.25,13.3,13.95,24.55,12.65,RAMANEWS
2020-02-25,13.95,14.2,13.3,13.4,24.55,12.65,RAMANEWS
2020-02-24,14.1,14.8,13.6,14.0,24.55,12.65,RAMANEWS
2020-02-20,14.3,15.5,14.3,14.45,24.55,12.65,RAMANEWS
2020-02-19,13.4,14.25,13.35,13.9,24.55,12.65,RAMANEWS
2020-02-18,14.0,14.0,13.3,13.75,24.55,12.65,RAMANEWS
2020-02-17,13.55,14.0,13.5,13.6,24.55,12.65,RAMANEWS
2020-02-14,13.7,14.25,13.25,13.45,24.55,12.65,RAMANEWS
2020-02-13,13.45,14.25,13.45,13.65,24.55,12.65,RAMANEWS
2020-02-12,14.2,14.4,13.55,13.65,24.55,12.65,RAMANEWS
2020-02-11,14.45,14.95,14.0,14.15,24.55,12.65,RAMANEWS
2020-02-10,14.45,15.85,14.45,14.5,24.55,12.65,RAMANEWS
2020-02-07,14.55,14.95,14.5,14.55,24.55,12.65,RAMANEWS
2020-02-06,14.35,15.25,14.35,14.65,24.55,12.65,RAMANEWS
2020-02-05,14.9,14.9,14.1,14.45,24.55,12.65,RAMANEWS
2020-02-04,13.55,14.9,13.55,14.65,24.55,12.65,RAMANEWS
2020-02-03,13.65,14.9,13.3,13.6,24.55,12.65,RAMANEWS
2020-02-01,14.8,14.8,13.5,13.75,24.85,12.65,RAMANEWS
2020-01-31,14.55,14.9,14.1,14.35,24.85,12.65,RAMANEWS
2020-01-30,14.85,15.5,14.3,14.55,24.85,12.65,RAMANEWS
2020-01-29,15.1,15.9,14.7,14.95,24.85,12.65,RAMANEWS
2020-01-28,15.45,15.6,15.0,15.5,24.85,12.65,RAMANEWS
2020-01-27,15.9,15.9,15.35,15.45,24.85,12.65,RAMANEWS
2020-01-24,15.3,16.2,15.25,16.0,24.85,12.65,RAMANEWS
2020-01-23,15.8,16.05,15.45,15.55,24.85,12.65,RAMANEWS
2020-01-22,16.35,16.35,15.6,15.85,24.85,12.65,RAMANEWS
2020-01-21,15.35,15.95,15.3,15.8,24.85,12.65,RAMANEWS
2020-01-20,16.3,16.35,15.35,15.55,24.85,12.65,RAMANEWS
2020-01-17,15.3,17.2,15.3,16.3,29.95,12.65,RAMANEWS
2020-01-16,15.25,15.85,15.15,15.35,29.95,12.65,RAMANEWS
2020-01-15,15.0,16.4,15.0,15.3,29.95,12.65,RAMANEWS
2020-01-14,14.8,15.65,14.75,15.2,29.95,12.65,RAMANEWS
2020-01-13,14.6,15.5,14.6,14.75,29.95,12.65,RAMANEWS
2020-01-10,14.4,15.6,14.4,14.7,31.0,12.65,RAMANEWS
2020-01-09,15.25,15.25,14.4,14.5,31.0,12.65,RAMANEWS
2020-01-08,14.55,15.3,14.1,14.9,31.0,12.65,RAMANEWS
2020-01-07,14.7,14.8,14.5,14.55,31.0,12.65,RAMANEWS
2020-01-06,14.7,14.7,14.3,14.6,31.0,12.65,RAMANEWS
2020-01-03,14.95,14.95,14.45,14.7,31.25,12.65,RAMANEWS
2020-01-02,14.0,15.4,14.0,14.95,31.25,12.65,RAMANEWS
2020-01-01,14.1,14.6,13.6,13.8,31.25,12.65,RAMANEWS
2019-12-31,13.8,14.6,13.7,14.35,31.25,12.65,RAMANEWS
2019-12-30,14.1,14.2,13.35,13.85,31.25,12.65,RAMANEWS
2019-12-27,13.1,14.35,13.05,13.95,31.25,12.65,RAMANEWS
2019-12-26,13.15,13.2,12.9,13.15,31.25,12.65,RAMANEWS
2019-12-24,14.0,14.8,12.65,13.2,31.25,12.65,RAMANEWS
2019-12-23,14.5,14.5,13.3,13.6,31.25,12.65,RAMANEWS
2019-12-20,14.0,14.45,13.6,13.65,32.0,12.65,RAMANEWS
2019-12-19,13.95,14.25,13.55,14.0,32.0,12.65,RAMANEWS
2019-12-18,14.9,14.9,13.55,14.0,32.0,12.65,RAMANEWS
2019-12-17,13.6,15.1,13.6,14.2,32.0,12.65,RAMANEWS
2019-12-16,13.35,13.65,13.15,13.4,32.0,12.65,RAMANEWS
2019-12-13,13.95,13.95,13.25,13.45,32.0,12.65,RAMANEWS
2019-12-12,13.5,13.75,13.2,13.3,32.0,12.65,RAMANEWS
2019-12-11,13.35,13.4,13.1,13.15,32.0,12.65,RAMANEWS
2019-12-10,13.8,14.1,13.45,13.5,32.0,12.65,RAMANEWS
2019-12-09,14.2,14.4,13.85,13.95,32.0,12.65,RAMANEWS
2019-12-06,14.15,14.65,13.9,13.95,32.0,12.65,RAMANEWS
2019-12-05,14.25,14.4,14.1,14.2,32.0,12.65,RAMANEWS
2019-12-04,14.1,14.45,14.0,14.25,32.0,12.65,RAMANEWS
2019-12-03,14.5,14.5,14.05,14.1,32.0,12.65,RAMANEWS
2019-12-02,14.25,15.25,14.1,14.4,32.0,12.65,RAMANEWS
2019-11-29,14.5,14.85,14.15,14.3,32.0,12.65,RAMANEWS
2019-11-28,14.3,14.65,14.25,14.3,32.0,12.65,RAMANEWS
2019-11-27,14.8,14.8,14.15,14.2,32.0,12.65,RAMANEWS
2019-11-26,14.25,14.7,14.25,14.4,32.0,12.65,RAMANEWS
2019-11-25,13.95,14.8,13.95,14.25,32.0,12.65,RAMANEWS
2019-11-22,14.65,14.9,14.0,14.2,32.0,12.65,RAMANEWS
2019-11-21,14.9,14.9,14.55,14.65,32.0,12.65,RAMANEWS
2019-11-20,14.8,15.0,14.3,14.9,32.0,12.65,RAMANEWS
2019-11-19,14.8,15.1,14.55,14.8,32.0,12.65,RAMANEWS
2019-11-18,15.0,15.05,14.55,14.7,32.0,12.65,RAMANEWS
2019-11-15,15.2,15.2,14.95,15.05,34.75,12.65,RAMANEWS
2019-11-14,14.95,15.65,14.8,15.0,34.75,12.65,RAMANEWS
2019-11-13,15.65,15.65,15.05,15.1,34.75,12.65,RAMANEWS
2019-11-11,15.65,15.75,15.15,15.35,34.75,12.65,RAMANEWS
2019-11-08,15.85,15.85,15.2,15.5,35.1,12.65,RAMANEWS
2019-11-07,15.45,15.95,15.45,15.65,35.1,12.65,RAMANEWS
2019-11-06,15.65,16.25,15.5,15.5,35.1,12.65,RAMANEWS
2019-11-05,15.8,16.0,15.3,15.85,35.1,12.65,RAMANEWS
2019-11-04,16.05,16.8,15.1,15.55,35.1,12.65,RAMANEWS
2019-11-01,16.1,17.6,15.8,16.1,35.1,12.65,RAMANEWS
2019-10-31,16.45,17.95,15.5,16.4,35.1,12.65,RAMANEWS
2019-10-30,16.2,16.6,15.5,15.6,35.1,12.65,RAMANEWS
2019-10-29,16.9,17.0,16.15,16.35,35.1,12.65,RAMANEWS
2019-10-27,16.75,17.3,15.9,17.1,35.1,12.65,RAMANEWS
2019-10-25,16.95,16.95,15.8,16.3,35.1,12.65,RAMANEWS
